Time,Pressure,Position
0.1,150.2,7.3
0.2,149.8,7.4
0.3,150.5,7.2
0.4,151.0,7.1
0.5,149.9,7.3
0.6,148.7,7.5
0.7,147.5,7.6
0.8,146.0,7.8
0.9,145.2,7.9
1.0,144.0,8.1
1.1,143.5,8.3
1.2,142.0,8.6
1.3,140.5,8.8
1.4,139.0,9.1
1.5,137.5,9.4
1.6,136.0,9.7
1.7,134.5,10.0
1.8,133.0,10.4
1.9,131.5,10.7
2.0,130.0,11.0
